 #  DHFS: self-consistent potential and electron density.     ALPHA = 1.500000E+00
 #  Z =  79,  Aw = 1.969665E+02 g/mol,  number of electrons =  7.900000E+01     (Vext = Vnuc+Vel)
 #      R          R*Vext(R)      R*Vnuc(R)      R*Vel(R)       R*Vex(R)        rho(R)
  0.0000000E+00  0.0000000E+00  0.0000000E+00  0.0000000E+00  0.0000000E+00  2.1810695E+06
  1.0097579E-07 -9.6862202E-02 -9.6923855E-02  6.1652945E-05 -1.9342924E-05  2.1810687E+06
  2.0392861E-07 -1.9562074E-01 -1.9574525E-01  1.2451300E-04 -3.9064561E-05  2.1810679E+06
  3.0889716E-07 -2.9631259E-01 -2.9650119E-01  1.8860381E-04 -5.9172321E-05  2.1810666E+06
  4.1592090E-07 -3.9897542E-01 -3.9922937E-01  2.5394946E-04 -7.9673760E-05  2.1810646E+06
  5.2504008E-07 -5.0364764E-01 -5.0396822E-01  3.2057452E-04 -1.0057658E-04  2.1810621E+06
  6.3629572E-07 -6.1036839E-01 -6.1075689E-01  3.8850405E-04 -1.2188863E-04  2.1810588E+06
  7.4972966E-07 -7.1917754E-01 -7.1963530E-01  4.5776358E-04 -1.4361791E-04  2.1810549E+06
  8.6538453E-07 -8.3011573E-01 -8.3064411E-01  5.2837915E-04 -1.6577260E-04  2.1810502E+06
  9.8330383E-07 -9.4322439E-01 -9.4382477E-01  6.0037732E-04 -1.8836100E-04  2.1810448E+06
  1.1035319E-06 -1.0585457E+00 -1.0592195E+00  6.7378515E-04 -2.1139160E-04  2.1810385E+06
  1.2261139E-06 -1.1761227E+00 -1.1768714E+00  7.4863024E-04 -2.3487305E-04  2.1810314E+06
  1.3510960E-06 -1.2959992E+00 -1.2968242E+00  8.2494074E-04 -2.5881416E-04  2.1810233E+06
  1.4785251E-06 -1.4182198E+00 -1.4191226E+00  9.0274533E-04 -2.8322392E-04  2.1810143E+06
  1.6084492E-06 -1.5428301E+00 -1.5438122E+00  9.8207327E-04 -3.0811150E-04  2.1810043E+06
  1.7409171E-06 -1.6698764E+00 -1.6709393E+00  1.0629544E-03 -3.3348623E-04  2.1809932E+06
  1.8759786E-06 -1.7994058E+00 -1.8005512E+00  1.1454191E-03 -3.5935765E-04  2.1809809E+06
  2.0136845E-06 -1.9314666E+00 -1.9326961E+00  1.2294984E-03 -3.8573544E-04  2.1809675E+06
  2.1540865E-06 -2.0661076E+00 -2.0674229E+00  1.3152239E-03 -4.1262952E-04  2.1809529E+06
  2.2972376E-06 -2.2033790E+00 -2.2047816E+00  1.4026278E-03 -4.4004997E-04  2.1809370E+06
  2.4431913E-06 -2.3433314E+00 -2.3448231E+00  1.4917430E-03 -4.6800708E-04  2.1809197E+06
  2.5920028E-06 -2.4860167E+00 -2.4875993E+00  1.5826030E-03 -4.9651133E-04  2.1809009E+06
  2.7437278E-06 -2.6314877E+00 -2.6331629E+00  1.6752420E-03 -5.2557341E-04  2.1808807E+06
  2.8984235E-06 -2.7797980E+00 -2.7815677E+00  1.7696948E-03 -5.5520421E-04  2.1808589E+06
  3.0561480E-06 -2.9310025E+00 -2.9328685E+00  1.8659968E-03 -5.8541485E-04  2.1808354E+06
  3.2169606E-06 -3.0851569E+00 -3.0871211E+00  1.9641844E-03 -6.1621664E-04  2.1808102E+06
  3.3809218E-06 -3.2423179E+00 -3.2443822E+00  2.0642944E-03 -6.4762112E-04  2.1807831E+06
  3.5480932E-06 -3.4025433E+00 -3.4047097E+00  2.1663645E-03 -6.7964008E-04  2.1807541E+06
  3.7185377E-06 -3.5658920E+00 -3.5681624E+00  2.2704330E-03 -7.1228548E-04  2.1807232E+06
  3.8923194E-06 -3.7324239E+00 -3.7348004E+00  2.3765391E-03 -7.4556957E-04  2.1806901E+06
  4.0695035E-06 -3.9021999E+00 -3.9046846E+00  2.4847227E-03 -7.7950480E-04  2.1806548E+06
  4.2501568E-06 -4.0752822E+00 -4.0778772E+00  2.5950244E-03 -8.1410388E-04  2.1806173E+06
  4.4343471E-06 -4.2517340E+00 -4.2544415E+00  2.7074857E-03 -8.4937974E-04  2.1805773E+06
  4.6221437E-06 -4.4316196E+00 -4.4344418E+00  2.8221489E-03 -8.8534561E-04  2.1805348E+06
  4.8136172E-06 -4.6150045E+00 -4.6179436E+00  2.9390571E-03 -9.2201491E-04  2.1804896E+06
  5.0088396E-06 -4.8019554E+00 -4.8050136E+00  3.0582543E-03 -9.5940138E-04  2.1804417E+06
  5.2078843E-06 -4.9925400E+00 -4.9957197E+00  3.1797852E-03 -9.9751897E-04  2.1803909E+06
  5.4108261E-06 -5.1868273E+00 -5.1901310E+00  3.3036956E-03 -1.0363819E-03  2.1803370E+06
  5.6177413E-06 -5.3848876E+00 -5.3883176E+00  3.4300321E-03 -1.0760048E-03  2.1802800E+06
  5.8287078E-06 -5.5867922E+00 -5.5903510E+00  3.5588421E-03 -1.1164024E-03  2.1802197E+06
  6.0438048E-06 -5.7926138E+00 -5.7963040E+00  3.6901741E-03 -1.1575897E-03  2.1801559E+06
  6.2631132E-06 -6.0024262E+00 -6.0062503E+00  3.8240775E-03 -1.1995822E-03  2.1800885E+06
  6.4867155E-06 -6.2163047E+00 -6.2202653E+00  3.9606025E-03 -1.2423955E-03  2.1800173E+06
  6.7146957E-06 -6.4343255E+00 -6.4384253E+00  4.0998006E-03 -1.2860456E-03  2.1799421E+06
  6.9471396E-06 -6.6565664E+00 -6.6608081E+00  4.2417241E-03 -1.3305488E-03  2.1798628E+06
  7.1841346E-06 -6.8831063E+00 -6.8874927E+00  4.3864263E-03 -1.3759216E-03  2.1797792E+06
  7.4257697E-06 -7.1140254E+00 -7.1185594E+00  4.5339617E-03 -1.4221809E-03  2.1796911E+06
  7.6721359E-06 -7.3494053E+00 -7.3540897E+00  4.6843856E-03 -1.4693440E-03  2.1795982E+06
  7.9233256E-06 -7.5893289E+00 -7.5941667E+00  4.8377547E-03 -1.5174284E-03  2.1795005E+06
  8.1794335E-06 -7.8338804E+00 -7.8388745E+00  4.9941267E-03 -1.5664520E-03  2.1793976E+06
  8.4405557E-06 -8.0831452E+00 -8.0882988E+00  5.1535602E-03 -1.6164331E-03  2.1792893E+06
  8.7067905E-06 -8.3372103E+00 -8.3425264E+00  5.3161153E-03 -1.6673901E-03  2.1791754E+06
  8.9782379E-06 -8.5961637E+00 -8.6016456E+00  5.4818531E-03 -1.7193420E-03  2.1790557E+06
  9.2550001E-06 -8.8600951E+00 -8.8657460E+00  5.6508359E-03 -1.7723081E-03  2.1789299E+06
  9.5371810E-06 -9.1290953E+00 -9.1349185E+00  5.8231272E-03 -1.8263081E-03  2.1787977E+06
  9.8248868E-06 -9.4032565E+00 -9.4092553E+00  5.9987918E-03 -1.8813619E-03  2.1786588E+06
  1.0118226E-05 -9.6826723E+00 -9.6888502E+00  6.1778957E-03 -1.9374900E-03  2.1785130E+06
  1.0417308E-05 -9.9674375E+00 -9.9737980E+00  6.3605063E-03 -1.9947131E-03  2.1783600E+06
  1.0722246E-05 -1.0257648E+01 -1.0264195E+01  6.5466922E-03 -2.0530523E-03  2.1781994E+06
  1.1033154E-05 -1.0553402E+01 -1.0560139E+01  6.7365235E-03 -2.1125293E-03  2.1780310E+06
  1.1350150E-05 -1.0854799E+01 -1.0861729E+01  6.9300715E-03 -2.1731661E-03  2.1778544E+06
  1.1673352E-05 -1.1161937E+01 -1.1169064E+01  7.1274089E-03 -2.2349849E-03  2.1776692E+06
  1.2002882E-05 -1.1474919E+01 -1.1482247E+01  7.3286100E-03 -2.2980086E-03  2.1774750E+06
  1.2338864E-05 -1.1793847E+01 -1.1801381E+01  7.5337505E-03 -2.3622604E-03  2.1772716E+06
  1.2681424E-05 -1.2118826E+01 -1.2126569E+01  7.7429073E-03 -2.4277639E-03  2.1770585E+06
  1.3030692E-05 -1.2449960E+01 -1.2457916E+01  7.9561593E-03 -2.4945433E-03  2.1768352E+06
  1.3386798E-05 -1.2787356E+01 -1.2795530E+01  8.1735864E-03 -2.5626230E-03  2.1766015E+06
  1.3749876E-05 -1.3131122E+01 -1.3139517E+01  8.3952706E-03 -2.6320280E-03  2.1763567E+06
  1.4120062E-05 -1.3481365E+01 -1.3489986E+01  8.6212951E-03 -2.7027839E-03  2.1761005E+06
  1.4497497E-05 -1.3838197E+01 -1.3847049E+01  8.8517449E-03 -2.7749163E-03  2.1758324E+06
  1.4882321E-05 -1.4201727E+01 -1.4210814E+01  9.0867067E-03 -2.8484519E-03  2.1755519E+06
  1.5274681E-05 -1.4572068E+01 -1.4581394E+01  9.3262687E-03 -2.9234173E-03  2.1752585E+06
  1.5674722E-05 -1.4949333E+01 -1.4958903E+01  9.5705211E-03 -2.9998400E-03  2.1749516E+06
  1.6082595E-05 -1.5333634E+01 -1.5343454E+01  9.8195557E-03 -3.0777477E-03  2.1746306E+06
  1.6498455E-05 -1.5725087E+01 -1.5735161E+01  1.0073466E-02 -3.1571689E-03  2.1742951E+06
  1.6922456E-05 -1.6123807E+01 -1.6134140E+01  1.0332348E-02 -3.2381324E-03  2.1739444E+06
  1.7354759E-05 -1.6529910E+01 -1.6540506E+01  1.0596298E-02 -3.3206674E-03  2.1735778E+06
  1.7795527E-05 -1.6943512E+01 -1.6954378E+01  1.0865416E-02 -3.4048040E-03  2.1731948E+06
  1.8244924E-05 -1.7364731E+01 -1.7375871E+01  1.1139803E-02 -3.4905725E-03  2.1727946E+06
  1.8703120E-05 -1.7793683E+01 -1.7805103E+01  1.1419562E-02 -3.5780039E-03  2.1723765E+06
  1.9170287E-05 -1.8230487E+01 -1.8242192E+01  1.1704799E-02 -3.6671297E-03  2.1719399E+06
  1.9646600E-05 -1.8675261E+01 -1.8687256E+01  1.1995620E-02 -3.7579818E-03  2.1714840E+06
  2.0132240E-05 -1.9128122E+01 -1.9140414E+01  1.2292135E-02 -3.8505931E-03  2.1710079E+06
  2.0627388E-05 -1.9589188E+01 -1.9601782E+01  1.2594456E-02 -3.9449965E-03  2.1705110E+06
  2.1132231E-05 -2.0058577E+01 -2.0071480E+01  1.2902695E-02 -4.0412258E-03  2.1699923E+06
  2.1646957E-05 -2.0536406E+01 -2.0549623E+01  1.3216970E-02 -4.1393155E-03  2.1694509E+06
  2.2171762E-05 -2.1022792E+01 -2.1036329E+01  1.3537397E-02 -4.2393003E-03  2.1688860E+06
  2.2706842E-05 -2.1517850E+01 -2.1531714E+01  1.3864098E-02 -4.3412157E-03  2.1682967E+06
  2.3252399E-05 -2.2021696E+01 -2.2035893E+01  1.4197195E-02 -4.4450979E-03  2.1676819E+06
  2.3808637E-05 -2.2534442E+01 -2.2548979E+01  1.4536814E-02 -4.5509836E-03  2.1670407E+06
  2.4375765E-05 -2.3056202E+01 -2.3071085E+01  1.4883082E-02 -4.6589100E-03  2.1663720E+06
  2.4953998E-05 -2.3587085E+01 -2.3602321E+01  1.5236130E-02 -4.7689152E-03  2.1656747E+06
  2.5543552E-05 -2.4127200E+01 -2.4142796E+01  1.5596089E-02 -4.8810375E-03  2.1649478E+06
  2.6144648E-05 -2.4676654E+01 -2.4692617E+01  1.5963096E-02 -4.9953162E-03  2.1641900E+06
  2.6757514E-05 -2.5235549E+01 -2.5251887E+01  1.6337289E-02 -5.1117912E-03  2.1634002E+06
  2.7382379E-05 -2.5803988E+01 -2.5820707E+01  1.6718807E-02 -5.2305027E-03  2.1625771E+06
  2.8019478E-05 -2.6382067E+01 -2.6399175E+01  1.7107795E-02 -5.3514920E-03  2.1617195E+06
  2.8669052E-05 -2.6969881E+01 -2.6987385E+01  1.7504399E-02 -5.4748007E-03  2.1608260E+06
  2.9331343E-05 -2.7567518E+01 -2.7585427E+01  1.7908768E-02 -5.6004711E-03  2.1598952E+06
  3.0006601E-05 -2.8175065E+01 -2.8193387E+01  1.8321053E-02 -5.7285464E-03  2.1589258E+06
  3.0695081E-05 -2.8792602E+01 -2.8811344E+01  1.8741411E-02 -5.8590701E-03  2.1579162E+06
  3.1397040E-05 -2.9420203E+01 -2.9439373E+01  1.9169998E-02 -5.9920866E-03  2.1568650E+06
  3.2112743E-05 -3.0057938E+01 -3.0077545E+01  1.9606976E-02 -6.1276408E-03  2.1557706E+06
  3.2842458E-05 -3.0705868E+01 -3.0725921E+01  2.0052509E-02 -6.2657785E-03  2.1546314E+06
  3.3586461E-05 -3.1364049E+01 -3.1384556E+01  2.0506765E-02 -6.4065459E-03  2.1534457E+06
  3.4345031E-05 -3.2032527E+01 -3.2053497E+01  2.0969914E-02 -6.5499900E-03  2.1522118E+06
  3.5118453E-05 -3.2711341E+01 -3.2732783E+01  2.1442130E-02 -6.6961584E-03  2.1509279E+06
  3.5907018E-05 -3.3400521E+01 -3.3422444E+01  2.1923592E-02 -6.8450994E-03  2.1495923E+06
  3.6711022E-05 -3.4100085E+01 -3.4122499E+01  2.2414480E-02 -6.9968619E-03  2.1482029E+06
  3.7530768E-05 -3.4810041E+01 -3.4832956E+01  2.2914978E-02 -7.1514955E-03  2.1467580E+06
  3.8366564E-05 -3.5530387E+01 -3.5553812E+01  2.3425275E-02 -7.3090506E-03  2.1452555E+06
  3.9218724E-05 -3.6261104E+01 -3.6285049E+01  2.3945562E-02 -7.4695780E-03  2.1436933E+06
  4.0087569E-05 -3.7002163E+01 -3.7026639E+01  2.4476035E-02 -7.6331292E-03  2.1420694E+06
  4.0973424E-05 -3.7753518E+01 -3.7778535E+01  2.5016894E-02 -7.7997565E-03  2.1403815E+06
  4.1876624E-05 -3.8515108E+01 -3.8540676E+01  2.5568341E-02 -7.9695128E-03  2.1386275E+06
  4.2797508E-05 -3.9286853E+01 -3.9312983E+01  2.6130584E-02 -8.1424514E-03  2.1368051E+06
  4.3736422E-05 -4.0068656E+01 -4.0095360E+01  2.6703834E-02 -8.3186265E-03  2.1349119E+06
  4.4693719E-05 -4.0860400E+01 -4.0887689E+01  2.7288307E-02 -8.4980929E-03  2.1329456E+06
  4.5669759E-05 -4.1661945E+01 -4.1689829E+01  2.7884222E-02 -8.6809058E-03  2.1309036E+06
  4.6664909E-05 -4.2473129E+01 -4.2501621E+01  2.8491804E-02 -8.8671212E-03  2.1287836E+06
  4.7679543E-05 -4.3293764E+01 -4.3322875E+01  2.9111280E-02 -9.0567957E-03  2.1265828E+06
  4.8714043E-05 -4.4123637E+01 -4.4153380E+01  2.9742884E-02 -9.2499862E-03  2.1242986E+06
  4.9768797E-05 -4.4962505E+01 -4.4992892E+01  3.0386852E-02 -9.4467506E-03  2.1219285E+06
  5.0844203E-05 -4.5810095E+01 -4.5841139E+01  3.1043427E-02 -9.6471470E-03  2.1194696E+06
  5.1940664E-05 -4.6666103E+01 -4.6697815E+01  3.1712856E-02 -9.8512342E-03  2.1169193E+06
  5.3058592E-05 -4.7530186E+01 -4.7562582E+01  3.2395390E-02 -1.0059072E-02  2.1142745E+06
  5.4198409E-05 -4.8401969E+01 -4.8435060E+01  3.3091285E-02 -1.0270719E-02  2.1115325E+06
  5.5360542E-05 -4.9281032E+01 -4.9314833E+01  3.3800804E-02 -1.0486237E-02  2.1086904E+06
  5.6545429E-05 -5.0166917E+01 -5.0201442E+01  3.4524212E-02 -1.0705686E-02  2.1057451E+06
  5.7753514E-05 -5.1059118E+01 -5.1094380E+01  3.5261781E-02 -1.0929127E-02  2.1026938E+06
  5.8985253E-05 -5.1957082E+01 -5.1993096E+01  3.6013790E-02 -1.1156623E-02  2.0995333E+06
  6.0241109E-05 -5.2860203E+01 -5.2896984E+01  3.6780519E-02 -1.1388235E-02  2.0962606E+06
  6.1521552E-05 -5.3767823E+01 -5.3805385E+01  3.7562258E-02 -1.1624027E-02  2.0928727E+06
  6.2827066E-05 -5.4679223E+01 -5.4717582E+01  3.8359299E-02 -1.1864061E-02  2.0893664E+06
  6.4158140E-05 -5.5593625E+01 -5.5632797E+01  3.9171944E-02 -1.2108401E-02  2.0857387E+06
  6.5515276E-05 -5.6510185E+01 -5.6550185E+01  4.0000495E-02 -1.2357110E-02  2.0819864E+06
  6.6898983E-05 -5.7427988E+01 -5.7468833E+01  4.0845266E-02 -1.2610254E-02  2.0781066E+06
  6.8309781E-05 -5.8346049E+01 -5.8387756E+01  4.1706574E-02 -1.2867897E-02  2.0740961E+06
  6.9748202E-05 -5.9263304E+01 -5.9305888E+01  4.2584741E-02 -1.3130104E-02  2.0699519E+06
  7.1214786E-05 -6.0178607E+01 -6.0222087E+01  4.3480098E-02 -1.3396940E-02  2.0656709E+06
  7.2710084E-05 -6.1090730E+01 -6.1135123E+01  4.4392981E-02 -1.3668471E-02  2.0612503E+06
  7.4234658E-05 -6.1998354E+01 -6.2043678E+01  4.5323734E-02 -1.3944764E-02  2.0566871E+06
  7.5789083E-05 -6.2900067E+01 -6.2946339E+01  4.6272705E-02 -1.4225886E-02  2.0519786E+06
  7.7373941E-05 -6.3794361E+01 -6.3841601E+01  4.7240251E-02 -1.4511902E-02  2.0471220E+06
  7.8989830E-05 -6.4679630E+01 -6.4727857E+01  4.8226735E-02 -1.4802882E-02  2.0421147E+06
  8.0637356E-05 -6.5554166E+01 -6.5603399E+01  4.9232529E-02 -1.5098892E-02  2.0369542E+06
  8.2317139E-05 -6.6416161E+01 -6.6466419E+01  5.0258009E-02 -1.5400002E-02  2.0316382E+06
  8.4029810E-05 -6.7263702E+01 -6.7315006E+01  5.1303561E-02 -1.5706280E-02  2.0261644E+06
  8.5776014E-05 -6.8094780E+01 -6.8147150E+01  5.2369577E-02 -1.6017795E-02  2.0205308E+06
  8.7556407E-05 -6.8907290E+01 -6.8960747E+01  5.3456458E-02 -1.6334619E-02  2.0147357E+06
  8.9371658E-05 -6.9699041E+01 -6.9753606E+01  5.4564612E-02 -1.6656822E-02  2.0087774E+06
  9.1222451E-05 -7.0467769E+01 -7.0523464E+01  5.5694455E-02 -1.6984475E-02  2.0026546E+06
  9.3109480E-05 -7.1211153E+01 -7.1268000E+01  5.6846412E-02 -1.7317652E-02  1.9963661E+06
  9.5033455E-05 -7.1926843E+01 -7.1984864E+01  5.8020913E-02 -1.7656426E-02  1.9899112E+06
  9.6995099E-05 -7.2612486E+01 -7.2671704E+01  5.9218401E-02 -1.8000872E-02  1.9832893E+06
  9.8995151E-05 -7.3265774E+01 -7.3326214E+01  6.0439326E-02 -1.8351065E-02  1.9765004E+06
  1.0103436E-04 -7.3884493E+01 -7.3946178E+01  6.1684144E-02 -1.8707084E-02  1.9695445E+06
  1.0311350E-04 -7.4466585E+01 -7.4529539E+01  6.2953325E-02 -1.9069006E-02  1.9624222E+06
  1.0523334E-04 -7.5010223E+01 -7.5074470E+01  6.4247343E-02 -1.9436913E-02  1.9551345E+06
  1.0739469E-04 -7.5513891E+01 -7.5579457E+01  6.5566685E-02 -1.9810888E-02  1.9476827E+06
  1.0959836E-04 -7.5976471E+01 -7.6043383E+01  6.6911846E-02 -2.0191014E-02  1.9400686E+06
  1.1184517E-04 -7.6397330E+01 -7.6465613E+01  6.8283330E-02 -2.0577378E-02  1.9322943E+06
  1.1413597E-04 -7.6776391E+01 -7.6846072E+01  6.9681652E-02 -2.0970069E-02  1.9243624E+06
  1.1647162E-04 -7.7114186E+01 -7.7185293E+01  7.1107337E-02 -2.1369180E-02  1.9162759E+06
  1.1885300E-04 -7.7411879E+01 -7.7484440E+01  7.2560920E-02 -2.1774803E-02  1.9080381E+06
  1.2128101E-04 -7.7671245E+01 -7.7745288E+01  7.4042946E-02 -2.2187036E-02  1.8996529E+06
  1.2375656E-04 -7.7894609E+01 -7.7970163E+01  7.5553971E-02 -2.2605978E-02  1.8911243E+06
  1.2628057E-04 -7.8084745E+01 -7.8161840E+01  7.7094562E-02 -2.3031732E-02  1.8824567E+06
  1.2885400E-04 -7.8244747E+01 -7.8323413E+01  7.8665296E-02 -2.3464402E-02  1.8736548E+06
  1.3147782E-04 -7.8377885E+01 -7.8458152E+01  8.0266763E-02 -2.3904098E-02  1.8647234E+06
  1.3415301E-04 -7.8487461E+01 -7.8569361E+01  8.1899563E-02 -2.4350929E-02  1.8556676E+06
  1.3688058E-04 -7.8576691E+01 -7.8660255E+01  8.3564309E-02 -2.4805009E-02  1.8464926E+06
  1.3966154E-04 -7.8648599E+01 -7.8733861E+01  8.5261624E-02 -2.5266456E-02  1.8372037E+06
  1.4249696E-04 -7.8705956E+01 -7.8792948E+01  8.6992146E-02 -2.5735387E-02  1.8278061E+06
  1.4538789E-04 -7.8751234E+01 -7.8839990E+01  8.8756522E-02 -2.6211924E-02  1.8183053E+06
  1.4833543E-04 -7.8786594E+01 -7.8877150E+01  9.0555414E-02 -2.6696192E-02  1.8087066E+06
  1.5134067E-04 -7.8813895E+01 -7.8906284E+01  9.2389496E-02 -2.7188317E-02  1.7990152E+06
  1.5440475E-04 -7.8834703E+01 -7.8928963E+01  9.4259456E-02 -2.7688427E-02  1.7892364E+06
  1.5752883E-04 -7.8850326E+01 -7.8946492E+01  9.6165994E-02 -2.8196656E-02  1.7793753E+06
  1.6071407E-04 -7.8861840E+01 -7.8959950E+01  9.8109825E-02 -2.8713136E-02  1.7694368E+06
  1.6396167E-04 -7.8870121E+01 -7.8970212E+01  1.0009168E-01 -2.9238004E-02  1.7594260E+06
  1.6727286E-04 -7.8875874E+01 -7.8977986E+01  1.0211229E-01 -2.9771398E-02  1.7493475E+06
  1.7064887E-04 -7.8879663E+01 -7.8983836E+01  1.0417243E-01 -3.0313459E-02  1.7392061E+06
  1.7409099E-04 -7.8881935E+01 -7.8988208E+01  1.0627285E-01 -3.0864331E-02  1.7290063E+06
  1.7760050E-04 -7.8883040E+01 -7.8991454E+01  1.0841436E-01 -3.1424159E-02  1.7187523E+06
  1.8117872E-04 -7.8883250E+01 -7.8993848E+01  1.1059774E-01 -3.1993092E-02  1.7084485E+06
  1.8482700E-04 -7.8882778E+01 -7.8995602E+01  1.1282382E-01 -3.2571278E-02  1.6980990E+06
  1.8854671E-04 -7.8881784E+01 -7.8996877E+01  1.1509343E-01 -3.3158872E-02  1.6877076E+06
  1.9233924E-04 -7.8880391E+01 -7.8997798E+01  1.1740742E-01 -3.3756027E-02  1.6772782E+06
  1.9620603E-04 -7.8878692E+01 -7.8998459E+01  1.1976665E-01 -3.4362902E-02  1.6668145E+06
  2.0014853E-04 -7.8876757E+01 -7.8998929E+01  1.2217202E-01 -3.4979657E-02  1.6563200E+06
  2.0416822E-04 -7.8874637E+01 -7.8999261E+01  1.2462441E-01 -3.5606453E-02  1.6457981E+06
  2.0826660E-04 -7.8872370E+01 -7.8999494E+01  1.2712474E-01 -3.6243455E-02  1.6352521E+06
  2.1244523E-04 -7.8869983E+01 -7.8999657E+01  1.2967396E-01 -3.6890831E-02  1.6246850E+06
  2.1670567E-04 -7.8867496E+01 -7.8999769E+01  1.3227301E-01 -3.7548750E-02  1.6141000E+06
  2.2104953E-04 -7.8864923E+01 -7.8999845E+01  1.3492286E-01 -3.8217384E-02  1.6034999E+06
  2.2547843E-04 -7.8862273E+01 -7.8999897E+01  1.3762451E-01 -3.8896909E-02  1.5928874E+06
  2.2999405E-04 -7.8859554E+01 -7.8999933E+01  1.4037896E-01 -3.9587501E-02  1.5822652E+06
  2.3459808E-04 -7.8856769E+01 -7.8999956E+01  1.4318724E-01 -4.0289340E-02  1.5716360E+06
  2.3929225E-04 -7.8853921E+01 -7.8999972E+01  1.4605041E-01 -4.1002610E-02  1.5610020E+06
  2.4407832E-04 -7.8851012E+01 -7.8999982E+01  1.4896952E-01 -4.1727495E-02  1.5503657E+06
  2.4895810E-04 -7.8848043E+01 -7.8999988E+01  1.5194568E-01 -4.2464183E-02  1.5397293E+06
  2.5393342E-04 -7.8845013E+01 -7.8999993E+01  1.5497999E-01 -4.3212864E-02  1.5290948E+06
  2.5900615E-04 -7.8841922E+01 -7.8999995E+01  1.5807358E-01 -4.3973733E-02  1.5184644E+06
  2.6417820E-04 -7.8838770E+01 -7.8999997E+01  1.6122761E-01 -4.4746985E-02  1.5078399E+06
  2.6945151E-04 -7.8835555E+01 -7.8999998E+01  1.6444325E-01 -4.5532818E-02  1.4972232E+06
  2.7482807E-04 -7.8832277E+01 -7.8999999E+01  1.6772171E-01 -4.6331435E-02  1.4866162E+06
  2.8030989E-04 -7.8828935E+01 -7.8999999E+01  1.7106420E-01 -4.7143041E-02  1.4760203E+06
  2.8589904E-04 -7.8825528E+01 -7.9000000E+01  1.7447197E-01 -4.7967841E-02  1.4654374E+06
  2.9159762E-04 -7.8822053E+01 -7.9000000E+01  1.7794630E-01 -4.8806047E-02  1.4548688E+06
  2.9740777E-04 -7.8818511E+01 -7.9000000E+01  1.8148846E-01 -4.9657872E-02  1.4443160E+06
  3.0333167E-04 -7.8814900E+01 -7.9000000E+01  1.8509980E-01 -5.0523531E-02  1.4337804E+06
  3.0937156E-04 -7.8811218E+01 -7.9000000E+01  1.8878163E-01 -5.1403244E-02  1.4232634E+06
  3.1552970E-04 -7.8807465E+01 -7.9000000E+01  1.9253535E-01 -5.2297233E-02  1.4127660E+06
